All Layer Optical Constants
Wavelength (nm)	n, GaP Oxide	n, B-Spline	n, SI_JAW	k, GaP Oxide	k, B-Spline	k, SI_JAW
211.576874	1.806929	1.482952	1.123567	0.003440	2.946995	3.022594	
213.164581	1.801366	1.488414	1.145748	0.002967	3.078147	3.055785	
214.752319	1.796011	1.528991	1.168772	0.002497	3.173756	3.089487	
216.340134	1.790912	1.562682	1.192738	0.002132	3.236725	3.123678	
217.928055	1.786005	1.577068	1.217744	0.001848	3.301921	3.158371	
219.516022	1.781151	1.590551	1.243896	0.001397	3.386322	3.193607	
221.104050	1.776367	1.619376	1.271268	0.001173	3.482748	3.229531	
222.692169	1.771816	1.661265	1.300082	0.000950	3.581534	3.266649	
224.280350	1.767480	1.709576	1.331440	0.000729	3.684899	3.306002	
225.868576	1.763291	1.769529	1.368742	0.000510	3.802797	3.347950	
227.456879	1.759150	1.855452	1.417031	0.000293	3.934796	3.388365	
229.045258	1.755276	1.978434	1.476103	0.000079	4.067631	3.417338	
230.633713	1.751450	2.136571	1.535902	0.000000	4.186872	3.427399	
232.222244	1.747662	2.326383	1.583465	0.000000	4.282964	3.422007	
233.810822	1.743917	2.540797	1.613059	0.000000	4.344052	3.412525	
235.399445	1.740412	2.766237	1.628942	0.000000	4.364104	3.408360	
236.988159	1.736960	2.988985	1.637225	0.000000	4.343899	3.412519	
238.576935	1.733552	3.199943	1.642134	0.000000	4.289858	3.424280	
240.165741	1.730382	3.394020	1.645569	0.000000	4.206897	3.442288	
241.754639	1.727244	3.565447	1.648309	0.000000	4.100265	3.465570	
243.343597	1.724156	3.711133	1.650725	0.000000	3.977727	3.493745	
244.932617	1.721282	3.830072	1.653081	0.000000	3.845315	3.526508	
246.521698	1.718439	3.920037	1.655635	0.000000	3.710071	3.563881	
248.110840	1.715615	3.983297	1.658714	0.000000	3.583138	3.606118	
249.700027	1.712840	4.028413	1.662727	0.000000	3.472660	3.653296	
251.289276	1.710177	4.068540	1.668192	0.000000	3.381157	3.705624	
252.878616	1.707630	4.113531	1.675715	0.000000	3.300140	3.763267	
254.467972	1.705125	4.164303	1.685985	0.000000	3.221465	3.826319	
256.057404	1.702677	4.219429	1.699746	0.000000	3.139565	3.894793	
257.646881	1.700397	4.276147	1.717770	0.000000	3.049984	3.968604	
259.236420	1.698043	4.329982	1.740836	0.000000	2.949386	4.047571	
260.826019	1.695632	4.374424	1.769707	0.000000	2.835953	4.131420	
262.415680	1.693550	4.399926	1.805106	0.000000	2.713111	4.219814	
264.005371	1.691507	4.403201	1.847700	0.000000	2.591181	4.312377	
265.595154	1.689352	4.386912	1.898091	0.000000	2.478365	4.408767	
267.184967	1.687262	4.357167	1.956990	0.000000	2.380476	4.508855	
268.774811	1.685311	4.321511	2.025317	0.000000	2.297378	4.612829	
270.364716	1.683378	4.283197	2.104447	0.000000	2.226574	4.721065	
271.954681	1.681464	4.243953	2.197320	0.000000	2.166408	4.833691	
273.544739	1.679574	4.205009	2.309657	0.000000	2.115564	4.948874	
275.134796	1.677697	4.167260	2.444857	0.000000	2.072840	5.060009	
276.724915	1.675961	4.131310	2.602002	0.000000	2.037170	5.157740	
278.315063	1.674275	4.097573	2.773091	0.000000	2.007600	5.234608	
279.905273	1.672616	4.066323	2.946965	0.000000	1.983265	5.294608	
281.495544	1.670964	4.037685	3.122405	0.000000	1.963361	5.347751	
283.085876	1.669457	4.011643	3.309460	0.000000	1.947167	5.401219	
284.676208	1.667986	3.988019	3.524439	0.000000	1.934055	5.446385	
286.266602	1.666430	3.966399	3.769389	0.000000	1.923639	5.464629	
287.857056	1.664845	3.946543	4.033906	0.000000	1.915997	5.434958	
289.447571	1.663379	3.928540	4.295397	0.000000	1.911197	5.349046	
291.038086	1.661969	3.912621	4.531756	0.000000	1.909225	5.213264	
292.628662	1.660576	3.899182	4.724962	0.000000	1.909925	5.040545	
294.219299	1.659196	3.888541	4.871256	0.000000	1.912738	4.851742	
295.809967	1.657876	3.880611	4.974534	0.000000	1.917068	4.662869	
297.400665	1.656662	3.875083	5.042196	0.000000	1.922455	4.484626	
298.991394	1.655434	3.871379	5.082824	0.000000	1.928608	4.323081	
300.582214	1.654115	3.868678	5.105662	0.000000	1.935937	4.179348	
302.173035	1.652795	3.866971	5.116897	0.000000	1.945419	4.052912	
303.763916	1.651607	3.866840	5.121128	0.000000	1.957766	3.942152	
305.354797	1.650446	3.869231	5.121561	0.000000	1.973427	3.845023	
306.945740	1.649359	3.875623	5.120307	0.000000	1.992378	3.759509	
308.536743	1.648350	3.887329	5.118719	0.000000	2.013155	3.683820	
310.127747	1.647333	3.904214	5.117632	0.000000	2.034059	3.616173	
311.718811	1.646225	3.925420	5.117527	0.000000	2.053869	3.555275	
313.309906	1.645117	3.949447	5.118678	0.000000	2.071842	3.500050	
314.901062	1.644098	3.973603	5.121222	0.000000	2.088468	3.449606	
316.492218	1.643136	3.996413	5.125203	0.000000	2.107764	3.403207	
318.083435	1.642175	4.020143	5.130598	0.000000	2.133619	3.360251	
319.674652	1.641236	4.048872	5.137349	0.000000	2.168504	3.320253	
321.265930	1.640297	4.088363	5.145371	0.000000	2.213442	3.282828	
322.857208	1.639368	4.147239	5.154595	0.000000	2.266578	3.247722	
324.448547	1.638452	4.232569	5.164930	0.000000	2.317183	3.214689	
326.039917	1.637535	4.342017	5.176298	0.000000	2.353826	3.183554	
327.631287	1.636637	4.469825	5.188648	0.000000	2.368907	3.154212	
329.222717	1.635743	4.608924	5.201956	0.000000	2.357533	3.126601	
330.814178	1.634861	4.751071	5.216225	0.000000	2.316883	3.100694	
332.405670	1.634098	4.886536	5.231498	0.000000	2.248461	3.076511	
333.997162	1.633335	5.010075	5.247900	0.000000	2.157738	3.054154	
335.588684	1.632547	5.119373	5.265495	0.000000	2.048651	3.033575	
337.180267	1.631697	5.212675	5.284428	0.000000	1.924019	3.014819	
338.771881	1.630847	5.288061	5.304890	0.000000	1.785982	2.997952	
340.363464	1.630047	5.342422	5.327271	0.000000	1.636511	2.983178	
341.955139	1.629323	5.371598	5.351707	0.000000	1.480620	2.970403	
343.546814	1.628598	5.374873	5.378484	0.000000	1.325122	2.959686	
345.138489	1.627926	5.353365	5.408265	0.000000	1.175989	2.951328	
346.730194	1.627321	5.309305	5.441346	0.000000	1.038856	2.945338	
348.321960	1.626716	5.246341	5.478192	0.000000	0.919347	2.941857	
349.913727	1.626079	5.171070	5.520452	0.000000	0.822988	2.941573	
351.505493	1.625392	5.093956	5.568836	0.000000	0.750040	2.944403	
353.097321	1.624705	5.021188	5.625729	0.000000	0.695636	2.950624	
354.689148	1.624047	4.955916	5.694625	0.000000	0.655143	2.959714	
356.280975	1.623474	4.899748	5.777904	0.000000	0.624125	2.969819	
357.872864	1.622901	4.852987	5.882858	0.000000	0.598281	2.976306	
359.464752	1.622326	4.814477	6.008857	0.000000	0.573497	2.973300	
361.056641	1.621676	4.780783	6.160621	0.000000	0.546944	2.947463	
362.648560	1.621026	4.748837	6.329084	0.000000	0.519063	2.891906	
364.240509	1.620375	4.717320	6.505469	0.000000	0.490749	2.790610	
365.832458	1.619802	4.685553	6.673759	0.000000	0.462789	2.647725	
367.424438	1.619260	4.653231	6.813735	0.000000	0.435901	2.458580	
369.016418	1.618718	4.620342	6.919016	0.000000	0.410756	2.242430	
370.608429	1.618206	4.587203	6.973244	0.000000	0.387977	2.009657	
372.200470	1.617767	4.554574	6.986702	0.000000	0.367804	1.777787	
373.792480	1.617329	4.522988	6.959728	0.000000	0.349905	1.559561	
375.384521	1.616890	4.492679	6.903574	0.000000	0.333921	1.361493	
376.976593	1.616396	4.463765	6.828031	0.000000	0.319513	1.185566	
378.568665	1.615884	4.436279	6.738420	0.000000	0.306352	1.035435	
380.160736	1.615373	4.410180	6.642571	0.000000	0.294124	0.904950	
381.752838	1.614864	4.385335	6.543668	0.000000	0.282527	0.794338	
383.344940	1.614367	4.361459	6.444571	0.000000	0.271353	0.701055	
384.937073	1.613871	4.338305	6.346990	0.000000	0.260623	0.621250	
386.529175	1.613374	4.315755	6.252538	0.000000	0.250393	0.554772	
388.121307	1.612915	4.293739	6.161996	0.000000	0.240712	0.499205	
389.713440	1.612514	4.272223	6.075556	0.000000	0.231626	0.452196	
391.305603	1.612112	4.251198	5.993925	0.000000	0.223175	0.413049	
392.897766	1.611711	4.230682	5.917501	0.000000	0.215401	0.380703	
394.489929	1.611316	4.210728	5.845666	0.000000	0.208337	0.353280	
396.082092	1.610927	4.191434	5.778327	0.000000	0.201961	0.329924	
397.674255	1.610538	4.172859	5.715893	0.000000	0.196194	0.310244	
399.266418	1.610148	4.155027	5.657641	0.000000	0.190956	0.293175	
400.858612	1.609766	4.137947	5.603062	0.000000	0.186173	0.278041	
402.450806	1.609388	4.121620	5.551841	0.000000	0.181771	0.264420	
404.042999	1.609011	4.106033	5.503875	0.000000	0.177678	0.252050	
405.635193	1.608634	4.091169	5.458797	0.000000	0.173826	0.240640	
407.227356	1.608262	4.076995	5.416060	0.000000	0.170148	0.229918	
408.819550	1.607896	4.063463	5.375411	0.000000	0.166595	0.219767	
410.411774	1.607531	4.050533	5.336623	0.000000	0.163141	0.210109	
412.003967	1.607165	4.038177	5.299551	0.000000	0.159761	0.200903	
413.596130	1.606802	4.026371	5.264136	0.000000	0.156434	0.192151	
415.188324	1.606448	4.015096	5.230059	0.000000	0.153136	0.183777	
416.780518	1.606095	4.004333	5.197213	0.000000	0.149846	0.175767	
418.372711	1.605741	3.994071	5.165506	0.000000	0.146542	0.168109	
419.964905	1.605387	3.984301	5.134860	0.000000	0.143204	0.160794	
421.557068	1.605094	3.975034	5.105204	0.000000	0.139808	0.153811	
423.149231	1.604820	3.966290	5.076480	0.000000	0.136294	0.147151	
424.741394	1.604547	3.958056	5.048683	0.000000	0.132578	0.140820	
426.333588	1.604273	3.950295	5.021740	0.000000	0.128579	0.134800	
427.925720	1.603987	3.942955	4.995576	0.000000	0.124219	0.129068	
429.517883	1.603656	3.935967	4.970156	0.000000	0.119423	0.123615	
431.110016	1.603325	3.929245	4.945444	0.000000	0.114123	0.118429	
432.702148	1.602994	3.922687	4.921410	0.000000	0.108249	0.113501	
434.294281	1.602663	3.916161	4.898025	0.000000	0.101737	0.108820	
435.886414	1.602370	3.909482	4.875263	0.000000	0.094528	0.104377	
437.478516	1.602114	3.902370	4.853099	0.000000	0.086659	0.100163	
439.070648	1.601858	3.894627	4.831511	0.000000	0.078322	0.096167	
440.662750	1.601602	3.886155	4.810478	0.000000	0.069718	0.092380	
442.254791	1.601346	3.876906	4.789980	0.000000	0.061035	0.088794	
443.846863	1.601096	3.866867	4.769996	0.000000	0.052456	0.085399	
445.438904	1.600849	3.856057	4.750510	0.000000	0.044156	0.082186	
447.030945	1.600602	3.844524	4.731504	0.000000	0.036306	0.079147	
448.622986	1.600355	3.832345	4.712963	0.000000	0.029070	0.076273	
450.215027	1.600108	3.819635	4.694870	0.000000	0.022610	0.073558	
451.807037	1.599866	3.806573	4.677213	0.000000	0.017083	0.070992	
453.399017	1.599627	3.793441	4.659976	0.000000	0.012548	0.068569	
454.990967	1.599389	3.780459	4.643149	0.000000	0.008912	0.066281	
456.582916	1.599150	3.767756	4.626715	0.000000	0.006067	0.064122	
458.174866	1.598912	3.755425	4.610664	0.000000	0.003912	0.062083	
459.766785	1.598676	3.743530	4.594984	0.000000	0.002345	0.060160	
461.358704	1.598446	3.732116	4.579663	0.000000	0.001269	0.058346	
462.950592	1.598217	3.721209	4.564689	0.000000	0.000588	0.056635	
464.542419	1.597987	3.710821	4.550052	0.000000	0.000210	0.055020	
466.134277	1.597757	3.700946	4.535749	0.000000	0.000044	0.053500	
467.726074	1.597527	3.691563	4.521796	0.000000	0.000001	0.052074	
469.317871	1.597353	3.682621	4.508152	0.000000	0.000000	0.050730	
470.909668	1.597187	3.674039	4.494804	0.000000	0.000000	0.049461	
472.501404	1.597020	3.665765	4.481748	0.000000	0.000000	0.048264	
474.093170	1.596854	3.657763	4.468971	0.000000	-0.000000	0.047134	
475.684875	1.596688	3.650010	4.456466	0.000000	-0.000000	0.046068	
477.276550	1.596511	3.642483	4.444224	0.000000	0.000000	0.045060	
478.868225	1.596298	3.635167	4.432238	0.000000	-0.000000	0.044108	
480.459869	1.596085	3.628047	4.420531	0.000000	0.000000	0.043214	
482.051453	1.595872	3.621109	4.409087	0.000000	0.000000	0.042372	
483.643066	1.595658	3.614345	4.397874	0.000000	0.000000	0.041574	
485.234619	1.595445	3.607744	4.386886	0.000000	0.000000	0.040817	
486.826111	1.595252	3.601298	4.376115	0.000000	0.000000	0.040100	
488.417633	1.595098	3.594998	4.365556	0.000000	0.000000	0.039418	
490.009125	1.594944	3.588839	4.355221	0.000000	-0.000000	0.038773	
491.600586	1.594791	3.582813	4.345124	0.000000	0.000000	0.038164	
493.191986	1.594637	3.576914	4.335220	0.000000	-0.000000	0.037583	
494.783356	1.594483	3.571138	4.325501	0.000000	0.000000	0.037028	
496.374695	1.594330	3.565479	4.315962	0.000000	-0.000000	0.036497	
497.966064	1.594182	3.559932	4.306602	0.000000	0.000000	0.035989	
499.557312	1.594034	3.554494	4.297470	0.000000	0.000000	0.035509	
501.148590	1.593886	3.549161	4.288501	0.000000	0.000000	0.035046	
502.739807	1.593739	3.543927	4.279689	0.000000	0.000000	0.034600	
504.330994	1.593591	3.538790	4.271029	0.000000	-0.000000	0.034170	
505.922180	1.593443	3.533746	4.262546	0.000000	0.000000	0.033756	
507.513275	1.593258	3.528793	4.254244	0.000000	0.000000	0.033359	
509.104340	1.593069	3.523925	4.246078	0.000000	0.000000	0.032973	
510.695404	1.592880	3.519141	4.238045	0.000000	0.000001	0.032597	
512.286438	1.592690	3.514438	4.230155	0.000000	0.000003	0.032232	
513.877380	1.592501	3.509813	4.222442	0.000000	0.000006	0.031879	
515.468323	1.592311	3.505263	4.214848	0.000000	0.000011	0.031534	
517.059204	1.592135	3.500787	4.207370	0.000000	0.000019	0.031196	
518.650085	1.591998	3.496383	4.200024	0.000000	0.000029	0.030866	
520.240906	1.591862	3.492049	4.192834	0.000000	0.000042	0.030544	
521.831665	1.591726	3.487782	4.185748	0.000000	0.000059	0.030227	
523.422424	1.591589	3.483582	4.178761	0.000000	0.000079	0.029914	
525.013123	1.591453	3.479446	4.171915	0.000000	0.000103	0.029608	
526.603760	1.591316	3.475374	4.165187	0.000000	0.000132	0.029307	
528.194397	1.591197	3.471365	4.158549	0.000000	0.000165	0.029009	
529.784973	1.591110	3.467417	4.152010	0.000000	0.000203	0.028715	
531.375488	1.591022	3.463529	4.145611	0.000000	0.000247	0.028426	
532.965942	1.590935	3.459701	4.139291	0.000000	0.000294	0.028139	
534.556396	1.590848	3.455932	4.133050	0.000000	0.000346	0.027856	
536.146790	1.590761	3.452221	4.126945	0.000000	0.000402	0.027576	
537.737122	1.590674	3.448566	4.120919	0.000000	0.000462	0.027299	
539.327393	1.590582	3.444967	4.114963	0.000000	0.000525	0.027024	
540.917664	1.590457	3.441422	4.109124	0.000000	0.000591	0.026753	
542.507874	1.590331	3.437932	4.103367	0.000000	0.000661	0.026484	
544.098022	1.590206	3.434493	4.097673	0.000000	0.000733	0.026217	
545.688110	1.590081	3.431107	4.092087	0.000000	0.000808	0.025953	
547.278198	1.589956	3.427771	4.086580	0.000000	0.000885	0.025691	
548.868164	1.589831	3.424485	4.081128	0.000000	0.000964	0.025431	
550.458130	1.589705	3.421248	4.075783	0.000000	0.001045	0.025174	
552.048035	1.589583	3.418060	4.070508	0.000000	0.001127	0.024919	
553.637878	1.589464	3.414919	4.065283	0.000000	0.001212	0.024666	
555.227661	1.589344	3.411825	4.060168	0.000000	0.001297	0.024416	
556.817444	1.589224	3.408778	4.055105	0.000000	0.001382	0.024168	
558.407104	1.589104	3.405776	4.050099	0.000000	0.001468	0.023921	
559.996704	1.588984	3.402819	4.045193	0.000000	0.001553	0.023678	
561.586304	1.588865	3.399905	4.040328	0.000000	0.001637	0.023436	
563.175903	1.588745	3.397035	4.035534	0.000000	0.001719	0.023196	
564.765320	1.588656	3.394206	4.030815	0.000000	0.001800	0.022959	
566.354736	1.588580	3.391418	4.026133	0.000000	0.001879	0.022722	
567.944092	1.588503	3.388671	4.021543	0.000000	0.001955	0.022490	
569.533386	1.588427	3.385963	4.016996	0.000000	0.002027	0.022258	
571.122620	1.588351	3.383293	4.012502	0.000000	0.002097	0.022029	
572.711792	1.588274	3.380660	4.008085	0.000000	0.002162	0.021802	
574.300903	1.588198	3.378063	4.003698	0.000000	0.002223	0.021576	
575.890015	1.588122	3.375501	3.999393	0.000000	0.002280	0.021353	
577.479004	1.588030	3.372972	3.995128	0.000000	0.002331	0.021132	
579.067932	1.587921	3.370476	3.990912	0.000000	0.002378	0.020913	
580.656799	1.587811	3.368012	3.986766	0.000000	0.002419	0.020696	
582.245605	1.587702	3.365576	3.982642	0.000000	0.002456	0.020480	
583.834351	1.587593	3.363169	3.978602	0.000000	0.002489	0.020267	
585.423035	1.587484	3.360790	3.974588	0.000000	0.002518	0.020056	
587.011658	1.587374	3.358437	3.970632	0.000000	0.002544	0.019846	
588.600220	1.587265	3.356111	3.966724	0.000000	0.002566	0.019639	
590.188721	1.587156	3.353810	3.962850	0.000000	0.002586	0.019433	
591.777161	1.587079	3.351534	3.959043	0.000000	0.002605	0.019230	
593.365540	1.587009	3.349283	3.955252	0.000000	0.002621	0.019027	
594.953796	1.586940	3.347055	3.951538	0.000000	0.002636	0.018828	
596.542053	1.586870	3.344850	3.947842	0.000000	0.002650	0.018629	
598.130188	1.586801	3.342669	3.944205	0.000000	0.002664	0.018433	
599.718262	1.586731	3.340510	3.940601	0.000000	0.002677	0.018239	
601.306274	1.586662	3.338374	3.937039	0.000000	0.002690	0.018046	
602.894226	1.586592	3.336260	3.933522	0.000000	0.002704	0.017855	
604.482117	1.586523	3.334168	3.930033	0.000000	0.002718	0.017665	
606.069946	1.586456	3.332098	3.926600	0.000000	0.002733	0.017478	
607.657654	1.586390	3.330050	3.923184	0.000000	0.002749	0.017292	
609.245300	1.586323	3.328024	3.919832	0.000000	0.002767	0.017109	
610.832886	1.586257	3.326020	3.916486	0.000000	0.002785	0.016925	
612.420471	1.586191	3.324039	3.913211	0.000000	0.002805	0.016746	
614.007874	1.586125	3.322079	3.909941	0.000000	0.002825	0.016566	
615.595276	1.586059	3.320140	3.906734	0.000000	0.002845	0.016390	
617.182495	1.585993	3.318224	3.903537	0.000000	0.002866	0.016213	
618.769775	1.585927	3.316328	3.900396	0.000000	0.002886	0.016040	
620.356873	1.585861	3.314453	3.897269	0.000000	0.002907	0.015867	
621.943970	1.585798	3.312599	3.894193	0.000000	0.002927	0.015697	
623.530945	1.585735	3.310765	3.891132	0.000000	0.002947	0.015528	
625.117859	1.585672	3.308951	3.888120	0.000000	0.002966	0.015360	
626.704712	1.585609	3.307157	3.885124	0.000000	0.002985	0.015194	
628.291382	1.585546	3.305382	3.882174	0.000000	0.003003	0.015030	
629.878052	1.585483	3.303626	3.879239	0.000000	0.003020	0.014867	
631.464722	1.585420	3.301889	3.876350	0.000000	0.003035	0.014706	
633.051147	1.585357	3.300170	3.873476	0.000000	0.003050	0.014546	
634.637573	1.585294	3.298469	3.870646	0.000000	0.003062	0.014388	
636.223999	1.585232	3.296785	3.867828	0.000000	0.003074	0.014231	
637.810181	1.585172	3.295119	3.865058	0.000000	0.003084	0.014076	
639.396362	1.585113	3.293468	3.862294	0.000000	0.003092	0.013921	
640.982483	1.585053	3.291834	3.859581	0.000000	0.003098	0.013770	
642.568481	1.584993	3.290215	3.856868	0.000000	0.003103	0.013618	
644.154419	1.584933	3.288612	3.854212	0.000000	0.003106	0.013469	
645.740234	1.584873	3.287024	3.851553	0.000000	0.003108	0.013321	
647.326050	1.584814	3.285449	3.848948	0.000000	0.003109	0.013175	
648.911682	1.584754	3.283890	3.846345	0.000000	0.003109	0.013029	
650.497192	1.584694	3.282344	3.843786	0.000000	0.003107	0.012886	
652.082703	1.584634	3.280811	3.841237	0.000000	0.003105	0.012743	
653.668091	1.584576	3.279292	3.838724	0.000000	0.003102	0.012602	
655.253418	1.584520	3.277787	3.836228	0.000000	0.003099	0.012462	
656.838684	1.584463	3.276294	3.833757	0.000000	0.003094	0.012323	
658.423767	1.584406	3.274814	3.831313	0.000000	0.003090	0.012186	
660.008850	1.584350	3.273347	3.828882	0.000000	0.003084	0.012050	
661.593750	1.584293	3.271892	3.826490	0.000000	0.003079	0.011916	
663.178589	1.584236	3.270449	3.824098	0.000000	0.003073	0.011782	
664.763367	1.584179	3.269017	3.821756	0.000000	0.003067	0.011651	
666.348022	1.584123	3.267598	3.819412	0.000000	0.003061	0.011520	
667.932617	1.584066	3.266191	3.817108	0.000000	0.003054	0.011391	
669.517090	1.584009	3.264794	3.814813	0.000000	0.003048	0.011262	
671.101501	1.583954	3.263409	3.812544	0.000000	0.003042	0.011135	
672.685791	1.583900	3.262035	3.810298	0.000000	0.003036	0.011010	
674.269958	1.583847	3.260672	3.808062	0.000000	0.003031	0.010885	
675.854065	1.583793	3.259320	3.805863	0.000000	0.003026	0.010762	
677.438110	1.583739	3.257978	3.803664	0.000000	0.003021	0.010639	
679.021973	1.583686	3.256647	3.801507	0.000000	0.003016	0.010519	
680.605774	1.583632	3.255327	3.799353	0.000000	0.003013	0.010399	
682.189453	1.583578	3.254016	3.797225	0.000000	0.003010	0.010280	
683.773071	1.583524	3.252716	3.795117	0.000000	0.003007	0.010163	
685.356567	1.583471	3.251426	3.793017	0.000000	0.003005	0.010046	
686.940002	1.583417	3.250145	3.790954	0.000000	0.003005	0.009932	
688.523315	1.583363	3.248875	3.788890	0.000000	0.003005	0.009817	
